kinetic_Energy(MeV) Momentum(MeV/c)   qx(cell)   qy(cell)    Q_x   Q_y	 Radius(m)  Ave_radius(m) tau_cell(micro_sec)   revolu_time(micro_sec)
11 144.094	0.30641 0.111373 3.67692 1.33648	4.41102	4.59907 5.291677E-02 0.635001
12 150.541	0.30857 0.109404 3.70284 1.31285	4.43468	4.62451 5.098446E-02 0.611814
13 156.729	0.309185 0.109479 3.71022 1.31375	4.45649	4.64764 4.926805E-02 0.591217
14 162.689	0.309673 0.110261 3.71607 1.32313	4.47675	4.66909 4.773250E-02 0.57279
15 168.443	0.310337 0.111117 3.72405 1.33341	4.49568	4.68919 4.634879E-02 0.556185
16 174.013	0.310777 0.111864 3.72932 1.34237	4.51345	4.70784 4.509092E-02 0.541091
17 179.416	0.311226 0.112489 3.73471 1.34987	4.53019	4.72551 4.394329E-02 0.527319
18 184.667	0.311595 0.113014 3.73914 1.35617	4.54601	4.74211 4.288867E-02 0.514664
19 189.777	0.312317 0.113454 3.7478 1.36145	4.56102	4.75792 4.191666E-02 0.503
20 194.758	0.312842 0.113837 3.7541 1.36605	4.57529	4.77278 4.101488E-02 0.492179
21 199.621	0.312695 0.11418 3.75234 1.37016	4.5889	4.78695 4.017657E-02 0.482119
22 204.372	0.313111 0.114476 3.75733 1.37371	4.60189	4.80058 3.939531E-02 0.472744
23 209.021	0.314018 0.114713 3.76821 1.37656	4.61435	4.81352 3.866321E-02 0.463959
24 213.572	0.313327 0.114924 3.75992 1.37909	4.6263	4.82603 3.797707E-02 0.455725
25 218.033	0.314424 0.115067 3.77309 1.3808	4.63778	4.83788 3.733006E-02 0.447961
26 222.41	0.314451 0.115152 3.77341 1.38182	4.64884	4.84942 3.672090E-02 0.440651
27 226.706	0.314428 0.115202 3.77314 1.38243	4.65948	4.86045 3.614434E-02 0.433732
28 230.927	0.315209 0.115188 3.78251 1.38226	4.66979	4.87101 3.559773E-02 0.427173
29 235.076	0.314683 0.115162 3.7762 1.38194	4.67971	4.88136 3.507991E-02 0.420959
30 239.158	0.315477 0.115119 3.78572 1.38143	4.68935	4.89127 3.458697E-02 0.415044
31 243.175	0.315073 0.115092 3.78088 1.3811	4.69866	4.90095 3.411809E-02 0.409417
32 247.13	0.315686 0.115082 3.78823 1.38098	4.70772	4.91024 3.367037E-02 0.404044
33 251.028	0.315513 0.115106 3.78615 1.38127	4.71651	4.9192 3.324233E-02 0.398908
34 254.869	0.315638 0.115163 3.78765 1.38196	4.72505	4.92805 3.283393E-02 0.394007
35 258.658	0.315866 0.115231 3.79039 1.38277	4.73334	4.93656 3.244220E-02 0.389306
36 262.396	0.315584 0.115336 3.78701 1.38403	4.74143	4.94493 3.206719E-02 0.384806
37 266.085	0.316131 0.115422 3.79357 1.38506	4.74931	4.95296 3.170653E-02 0.380478
38 269.727	0.315902 0.115562 3.79082 1.38674	4.75697	4.96091 3.136068E-02 0.376328
39 273.325	0.315947 0.115698 3.79136 1.38837	4.76447	4.96853 3.102717E-02 0.372326
40 276.879	0.316064 0.115837 3.79277 1.39004	4.77181	4.97601 3.070642E-02 0.368477
41 280.391	0.315993 0.115972 3.79191 1.39166	4.77897	4.9834 3.039779E-02 0.364773
42 283.864	0.316145 0.116101 3.79374 1.39321	4.78595	4.99051 3.009949E-02 0.361194
43 287.298	0.316049 0.116216 3.79259 1.39459	4.79278	4.99757 2.981213E-02 0.357746
44 290.696	0.316125 0.116312 3.7935 1.39575	4.79947	5.00435 2.953375E-02 0.354405
45 294.057	0.316222 0.116331 3.79466 1.39597	4.80602	5.01104 2.926495E-02 0.351179
46 297.384	0.316206 0.116346 3.79447 1.39615	4.81243	5.01766 2.900527E-02 0.348063
47 300.677	0.316446 0.116304 3.79735 1.39565	4.81872	5.02404 2.875327E-02 0.345039
48 303.938	0.316248 0.116147 3.79498 1.39376	4.82489	5.0304 2.850971E-02 0.342117
49 307.167	0.316309 0.115938 3.79571 1.39126	4.83096	5.0365 2.827277E-02 0.339273
50 310.366	0.316746 0.115709 3.80095 1.38851	4.8369	5.04253 2.804327E-02 0.336519
51 313.536	0.316487 0.115403 3.79785 1.38483	4.84269	5.04852 2.782083E-02 0.33385
52 316.677	0.316683 0.11501 3.80019 1.38012	4.8484	5.05428 2.760421E-02 0.331251
53 319.79	0.317028 0.114603 3.80433 1.37524	4.85401	5.05991 2.739356E-02 0.328723
54 322.877	0.31718 0.114224 3.80616 1.37069	4.85951	5.06556 2.718941E-02 0.326273
55 325.937	0.316831 0.113898 3.80197 1.36678	4.86491	5.07104 2.699038E-02 0.323885
56 328.972	0.317123 0.113606 3.80548 1.36327	4.87021	5.07648 2.679707E-02 0.321565
57 331.982	0.317739 0.113347 3.81287 1.36016	4.87544	5.0817 2.660812E-02 0.319297
58 334.968	0.317291 0.113192 3.80749 1.3583	4.8806	5.08686 2.642420E-02 0.31709
59 337.931	0.317123 0.113238 3.80547 1.35886	4.88569	5.09203 2.624552E-02 0.314946
60 340.871	0.317437 0.113355 3.80924 1.36026	4.89067	5.09706 2.607095E-02 0.312851
61 343.788	0.317783 0.113488 3.8134 1.36185	4.89556	5.10207 2.590101E-02 0.310812
62 346.684	0.317001 0.113695 3.80401 1.36434	4.90039	5.10689 2.573472E-02 0.308817
63 349.559	0.316586 0.113997 3.79903 1.36796	4.90515	5.11166 2.557246E-02 0.30687
64 352.413	0.317188 0.114333 3.80625 1.372	4.90987	5.11647 2.541459E-02 0.304975
65 355.247	0.317788 0.114677 3.81345 1.37612	4.91449	5.12115 2.526008E-02 0.303121
66 358.061	0.317182 0.114997 3.80619 1.37997	4.91901	5.12573 2.510893E-02 0.301307
67 360.857	0.316183 0.115257 3.7942 1.38308	4.92352	5.13036 2.496180E-02 0.299542
68 363.633	0.316642 0.11547 3.7997 1.38564	4.92796	5.13482 2.481738E-02 0.297809
69 366.391	0.317049 0.11568 3.80459 1.38816	4.93236	5.13933 2.467668E-02 0.29612
70 369.131	0.317231 0.115854 3.80677 1.39025	4.93672	5.1437 2.453868E-02 0.294464
71 371.854	0.316427 0.115964 3.79712 1.39157	4.94101	5.14801 2.440359E-02 0.292843
72 374.56	0.316327 0.116002 3.79593 1.39202	4.94524	5.15236 2.427180E-02 0.291262
73 377.249	0.316854 0.115997 3.80225 1.39196	4.9494	5.15653 2.414219E-02 0.289706
74 379.922	0.317061 0.115962 3.80473 1.39154	4.95352	5.16067 2.401532E-02 0.288184
75 382.578	0.316974 0.115929 3.80369 1.39115	4.95757	5.16485 2.389145E-02 0.286697
76 385.219	0.316389 0.11586 3.79667 1.39032	4.96159	5.16891 2.376978E-02 0.285237
77 387.844	0.316733 0.115743 3.80079 1.38891	4.96558	5.17289 2.365032E-02 0.283804
78 390.454	0.317105 0.115618 3.80526 1.38742	4.9695	5.17691 2.353363E-02 0.282404
79 393.05	0.317222 0.115475 3.80666 1.3857	4.97335	5.18079 2.341879E-02 0.281025
80 395.631	0.317123 0.11534 3.80547 1.38408	4.97716	5.18466 2.330627E-02 0.279675
81 398.197	0.316606 0.115166 3.79927 1.38199	4.98094	5.18854 2.319614E-02 0.278354
82 400.751	0.316831 0.114993 3.80197 1.37992	4.98467	5.19228 2.308762E-02 0.277051
83 403.289	0.317202 0.114796 3.80643 1.37755	4.98837	5.19607 2.298151E-02 0.275778
84 405.815	0.317221 0.114614 3.80665 1.37537	4.99205	5.19973 2.287692E-02 0.274523
85 408.328	0.317332 0.114428 3.80798 1.37314	4.99568	5.20338 2.277437E-02 0.273292
86 410.827	0.316995 0.114218 3.80394 1.37061	4.99925	5.20705 2.267392E-02 0.272087
87 413.314	0.316666 0.11403 3.79999 1.36836	5.0028	5.21058 2.257479E-02 0.270897
88 415.788	0.316964 0.113792 3.80357 1.3655	5.00631	5.21407 2.247737E-02 0.269728
89 418.251	0.317168 0.113591 3.80602 1.36309	5.00978	5.21762 2.238206E-02 0.268585
90 420.701	0.317348 0.113381 3.80817 1.36057	5.01321	5.22107 2.228809E-02 0.267457
91 423.139	0.317281 0.113155 3.80737 1.35786	5.0166	5.22445 2.219556E-02 0.266347
92 425.565	0.316949 0.11295 3.80339 1.3554	5.01998	5.2279 2.210502E-02 0.26526
93 427.981	0.316906 0.112711 3.80287 1.35253	5.02332	5.2312 2.201550E-02 0.264186
94 430.385	0.317229 0.112492 3.80675 1.34991	5.02661	5.23451 2.192764E-02 0.263132
95 432.778	0.317304 0.11225 3.80765 1.347	5.02987	5.23784 2.184141E-02 0.262097
96 435.16	0.317397 0.112036 3.80877 1.34443	5.0331	5.24105 2.175619E-02 0.261074
97 437.532	0.317528 0.111785 3.81034 1.34142	5.0363	5.24422 2.167229E-02 0.260067
98 439.893	0.317294 0.111552 3.80753 1.33862	5.03946	5.24745 2.159009E-02 0.259081
99 442.243	0.317052 0.111309 3.80462 1.33571	5.04258	5.2506 2.150896E-02 0.258108
100 444.584	0.317289 0.111063 3.80747 1.33276	5.0457	5.25371 2.142901E-02 0.257148
101 446.914	0.317192 0.11082 3.80631 1.32984	5.04882	5.25685 2.135057E-02 0.256207
102 449.235	0.316988 0.110582 3.80385 1.32699	5.05188	5.25986 2.127291E-02 0.255275
103 451.545	0.317163 0.110362 3.80595 1.32434	5.0549	5.26289 2.119657E-02 0.254359
104 453.847	0.317227 0.110105 3.80672 1.32126	5.0579	5.26588 2.112136E-02 0.253456
105 456.139	0.317111 0.109873 3.80533 1.31848	5.06087	5.26892 2.104751E-02 0.25257
106 458.421	0.317156 0.109619 3.80587 1.31543	5.06383	5.27182 2.097433E-02 0.251692
107 460.694	0.317317 0.109378 3.80781 1.31254	5.06675	5.27473 2.090234E-02 0.250828
108 462.959	0.317096 0.109136 3.80515 1.30963	5.06966	5.27768 2.083166E-02 0.24998
109 465.214	0.317057 0.108897 3.80469 1.30676	5.07253	5.28055 2.076174E-02 0.249141
110 467.461	0.317243 0.108637 3.80692 1.30365	5.0754	5.28335 2.069266E-02 0.248312
111 469.7	0.317193 0.108375 3.80632 1.3005	5.07823	5.28622 2.062490E-02 0.247499
112 471.929	0.317056 0.10814 3.80467 1.29768	5.08103	5.289 2.055781E-02 0.246694
113 474.151	0.317062 0.107902 3.80474 1.29482	5.08381	5.29177 2.049174E-02 0.245901
114 476.364	0.317141 0.107628 3.80569 1.29154	5.08657	5.29458 2.042677E-02 0.245121
115 478.569	0.316944 0.107394 3.80333 1.28873	5.0893	5.29727 2.036233E-02 0.244348
116 480.765	0.316798 0.107129 3.80158 1.28555	5.09203	5.29994 2.029874E-02 0.243585
117 482.954	0.317148 0.106941 3.80578 1.28329	5.09473	5.30263 2.023617E-02 0.242834
118 485.136	0.317165 0.106714 3.80598 1.28057	5.09738	5.30535 2.017461E-02 0.242095
119 487.309	0.316975 0.106512 3.8037 1.27815	5.10002	5.30796 2.011353E-02 0.241362
120 489.475	0.316733 0.106319 3.80079 1.27583	5.10265	5.31054 2.005323E-02 0.240639
121 491.633	0.316763 0.106097 3.80116 1.27316	5.1053	5.31319 1.999404E-02 0.239928
122 493.784	0.316563 0.105875 3.79876 1.2705	5.10791	5.31577 1.993539E-02 0.239225
123 495.928	0.316293 0.105679 3.79552 1.26815	5.11049	5.31832 1.987750E-02 0.23853
124 498.064	0.316288 0.105475 3.79546 1.2657	5.11306	5.32092 1.982057E-02 0.237847
125 500.193	0.316381 0.105259 3.79657 1.26311	5.1156	5.32342 1.976404E-02 0.237168
126 502.316	0.316353 0.105013 3.79624 1.26016	5.11814	5.32589 1.970820E-02 0.236498
127 504.431	0.315959 0.104773 3.79151 1.25728	5.12065	5.32838 1.965319E-02 0.235838
128 506.539	0.315913 0.104505 3.79096 1.25406	5.12314	5.33092 1.959902E-02 0.235188
129 508.641	0.315716 0.104235 3.78859 1.25082	5.12562	5.33335 1.954531E-02 0.234544
130 510.736	0.315645 0.10386 3.78774 1.24632	5.12807	5.33574 1.949212E-02 0.233905
131 512.824	0.315458 0.103457 3.78549 1.24149	5.13051	5.33815 1.943968E-02 0.233276
132 514.906	0.315633 0.102871 3.7876 1.23445	5.13295	5.34061 1.938811E-02 0.232657
133 516.981	0.316141 0.101981 3.79369 1.22377	5.13536	5.34299 1.933695E-02 0.232043
134 519.05	0.316245 0.101061 3.79494 1.21273	5.13774	5.34532 1.928624E-02 0.231435
135 521.113	0.316248 0.100246 3.79497 1.20295	5.14012	5.34771 1.923642E-02 0.230837
136 523.169	0.316296 0.0992733 3.79555 1.19128	5.14247	5.35002 1.918695E-02 0.230243
137 525.22	0.316081 0.0984925 3.79297 1.18191	5.14482	5.35233 1.913809E-02 0.229657
138 527.264	0.316546 0.0980458 3.79855 1.17655	5.14715	5.35458 1.908965E-02 0.229076
139 529.302	0.317522 0.100281 3.81027 1.20337	5.14946	5.35692 1.904211E-02 0.228505
